date,open,high,low,close,volume
2023-09-18,16.4500,16.4500,15.5000,15.7500,97704
2023-09-20,15.7000,15.7000,15.0500,15.2000,123029
2023-09-21,15.1500,15.7500,15.1000,15.2000,71633
2023-09-22,15.2000,15.4000,14.9500,15.0500,51555
2023-09-25,15.3000,15.6500,15.1500,15.4000,75749
2023-09-26,15.5000,15.5000,15.0500,15.1000,130187
2023-09-27,15.3000,15.4000,14.8000,15.0000,56339
2023-09-28,15.0000,15.3000,14.7500,14.8000,91717
2023-09-29,14.8000,15.0000,14.6000,14.7000,34641
2023-10-03,14.8000,15.0000,14.6000,14.8500,39180
2023-10-04,15.0000,15.0000,14.8000,14.9500,50070
2023-10-05,14.9000,15.0000,14.5500,14.7000,32080
2023-10-06,14.9500,15.2500,14.7500,15.0500,49813
2023-10-09,15.0500,15.1500,14.6000,14.7000,38518
2023-10-10,14.9000,15.0500,14.4000,14.6000,69657
2023-10-11,14.6500,16.3000,14.6000,16.1500,721276
2023-10-12,16.4000,16.4000,15.5000,15.9000,198664
2023-10-13,16.0000,16.0000,15.5000,15.5500,105239
2023-10-16,15.8000,16.0000,15.1500,15.4000,205377
2023-10-17,15.4500,15.7000,15.2500,15.3500,93352
2023-10-18,15.3500,15.5000,14.9500,15.1000,108343
2023-10-19,15.1000,15.2000,14.8000,14.9500,83492
2023-10-20,15.0500,15.4000,14.8000,15.0000,42346
2023-10-23,15.2000,15.2000,13.5500,13.8000,97044
2023-10-25,14.0500,14.5500,13.8000,14.0500,422522
2023-10-26,13.8500,14.1000,13.2500,13.5000,142623
2023-10-27,13.5000,14.1000,13.5000,13.7000,328751
2023-10-30,13.7000,14.1000,13.6500,13.7500,229545
2023-10-31,13.7500,13.9500,13.6000,13.8000,42043
2023-11-01,14.0000,14.1000,13.7000,13.8000,276966
2023-11-02,13.8000,14.2000,13.8000,13.9000,500116
2023-11-03,14.1000,14.4000,14.0000,14.0500,255031
2023-11-06,14.0000,14.7000,14.0000,14.5000,814688
2023-11-07,14.7000,14.7000,14.4000,14.4500,156940
2023-11-08,14.7500,15.0500,14.6000,14.8000,431103
2023-11-09,14.7500,15.0500,14.3500,14.4500,635529
2023-11-10,14.6500,16.2000,14.4500,15.6500,1345542
2023-11-13,15.7000,15.8000,15.3000,15.4500,327788
2023-11-15,15.5000,15.7500,15.2500,15.3500,473832
2023-11-16,15.3500,15.4500,15.0500,15.2000,872176
2023-11-17,15.1000,15.7500,14.9500,15.5000,955462
2023-11-20,15.3500,17.8000,15.3500,16.9500,2020875
2023-11-21,17.7500,18.2000,17.3000,17.9500,1713511
2023-11-22,18.1500,18.1500,16.4000,16.7000,653775
2023-11-23,16.7000,17.1500,16.5000,16.7000,274110
2023-11-24,16.9000,17.3000,16.8000,17.0500,498725
2023-11-28,17.4500,17.5000,16.6000,16.7500,705319
2023-11-29,17.0000,17.0000,16.5000,16.5500,734543
2023-11-30,16.6000,16.7500,15.8000,15.9500,525311
2023-12-01,16.2000,16.5000,15.9000,16.1500,484883
2023-12-04,16.5000,16.5000,16.0500,16.1500,77410
2023-12-05,16.3000,16.3500,15.7500,16.0500,221430
2023-12-06,16.4000,17.6000,16.3500,17.0000,972702
2023-12-07,17.2000,17.6500,16.5000,17.1000,323111
2023-12-08,17.3500,17.3500,16.6500,16.7500,146779
2023-12-11,17.0000,17.0000,16.4500,16.5500,219606
2023-12-12,16.7500,16.9500,16.3500,16.4500,192802
2023-12-13,16.6000,16.7500,16.2000,16.4000,132498
2023-12-14,16.5000,16.8000,16.1500,16.3500,155896
2023-12-15,16.5000,16.5000,16.1500,16.2000,81797
2023-12-18,16.2500,19.4000,16.2500,18.9000,2511418
2023-12-19,19.6000,19.8000,18.0500,18.9500,1926599
2023-12-20,18.7000,19.8000,17.9000,18.1500,1198050
2023-12-21,18.4000,19.3000,17.6000,18.9500,753780
2023-12-22,19.3500,19.3500,18.1500,18.3500,283104
2023-12-26,18.6000,18.8500,17.7500,18.2000,254886
2023-12-27,18.2500,18.7000,17.3000,17.5000,285999
2023-12-28,17.6000,17.7000,16.5000,16.6500,429151
2023-12-29,16.8000,17.9500,16.7500,17.5000,225203
2024-01-01,17.7000,19.0500,17.5500,18.3000,536360
2024-01-02,18.7500,20.8000,18.4500,20.2500,2746516
2024-01-03,20.4500,20.7000,19.6000,19.8500,615802
2024-01-04,19.9000,20.2000,19.4500,19.5500,357173
2024-01-05,19.6000,19.8000,18.4000,19.2500,570521
2024-01-08,19.2500,20.2000,19.0500,19.6500,542363
2024-01-09,19.8000,20.7000,19.2500,20.3500,692641
2024-01-10,20.0500,20.4500,19.8000,19.9500,359423
2024-01-11,19.9500,20.2000,19.4500,19.7000,178537
2024-01-12,19.7000,20.4000,19.2000,19.3500,395051
2024-01-15,19.4500,20.5500,19.3000,19.9500,545691
2024-01-16,20.5500,20.6000,19.0000,19.5500,438396
2024-01-17,19.5500,19.8000,18.8500,19.1500,172470
2024-01-18,19.0500,19.8000,18.4000,19.2000,199832
2024-01-19,19.4000,20.4000,19.1500,19.7500,464185
2024-01-23,19.5000,19.7500,17.9000,18.2500,307197
2024-01-24,18.3000,18.6000,17.7000,17.9000,522103
2024-01-25,18.0500,18.9500,18.0000,18.5500,505999
2024-01-29,18.8500,19.3500,18.3500,18.5500,473863
2024-01-30,18.8000,19.9000,18.1000,19.3000,881136
2024-01-31,19.3000,19.8000,18.8500,18.9500,461047
2024-02-01,19.2500,19.4000,18.5000,18.6500,328657
2024-02-02,18.8500,19.2000,18.4000,18.5000,312814
2024-02-05,18.7000,19.3500,18.0000,18.1500,255041
2024-02-06,18.4500,21.7500,18.0000,21.7500,4434228
2024-02-07,21.9000,24.3500,20.5000,23.0500,6061557
2024-02-08,23.7000,23.9000,22.4000,23.3500,1453883
2024-02-09,24.0000,24.0000,21.0000,21.9500,1023722
2024-02-12,22.0000,22.4000,19.3000,19.6500,702268
2024-02-13,19.0500,20.1500,18.7000,19.2500,471798
2024-02-14,18.8500,20.4000,18.8500,20.2500,410323
2024-02-15,20.8500,21.2000,20.4500,20.7000,326424
2024-02-16,21.0500,21.7000,20.8500,21.2500,374675
2024-02-19,21.6500,21.6500,20.6000,20.7000,221074
2024-02-20,20.7000,21.1500,20.0000,20.1500,259170
2024-02-21,20.2500,21.0000,19.4500,19.7000,426046
2024-02-22,19.9000,20.8500,19.2000,20.3500,471362
2024-02-23,20.5000,20.7000,19.8000,19.9000,205478
2024-02-26,20.0000,20.1000,19.0000,19.2000,349526
2024-02-27,19.3500,19.9500,18.5500,18.9000,351210
2024-02-28,19.0000,19.3000,17.9000,18.3000,353315
2024-02-29,18.3000,18.5000,17.9500,18.3500,104803
2024-03-01,18.5500,19.3500,18.3000,19.1500,375337
2024-03-04,19.3000,20.5000,18.6000,19.6000,1032288
2024-03-05,19.6000,20.7000,19.1500,19.4000,430469
2024-03-06,19.5000,19.6000,18.3500,18.8500,259658
2024-03-07,18.6000,19.2000,18.6000,18.7500,93568
2024-03-11,18.9500,18.9500,17.9000,18.2000,166822
2024-03-12,18.1500,18.2500,16.6000,16.8500,278542
2024-03-13,16.6000,17.0500,15.2000,15.4000,326514
2024-03-14,15.3000,16.1500,14.8000,15.7500,323350
2024-03-15,15.9000,16.3000,15.5500,15.9000,139280
2024-03-18,15.6500,16.3000,15.6000,15.9500,101099
2024-03-19,15.6500,16.1000,15.1500,15.3500,156688
2024-03-20,15.2500,15.6500,14.5500,14.9000,175876
2024-03-21,15.0000,16.5000,14.9500,16.0500,618976
2024-03-22,16.0500,16.1500,15.6000,15.7500,155728
2024-03-26,16.0000,16.1500,15.4000,15.5000,123171
2024-03-27,15.4000,15.7500,14.5000,14.8000,307388
2024-03-28,15.0000,15.4500,14.5500,14.6500,164925
2024-04-01,14.5000,16.2000,14.4000,16.1000,220502
2024-04-02,16.0500,16.7500,15.8000,16.6000,154019
2024-04-03,16.9500,17.6000,16.5500,17.3000,301469
2024-04-04,17.9500,20.2000,17.1000,19.5500,1437274
2024-04-05,19.5500,21.2500,18.8000,20.8500,1624947
2024-04-08,21.5500,21.5500,19.6000,19.7500,367879
2024-04-09,19.9500,20.9000,19.4000,19.5000,248792
2024-04-10,19.5500,20.2000,19.2000,19.3500,168929
2024-04-12,19.0500,19.9000,18.3000,18.9000,238854
2024-04-15,17.8000,19.3000,17.3000,19.1000,367991
2024-04-16,19.1000,21.0000,18.5000,21.0000,1304407
2024-04-18,21.4000,23.1000,21.1500,22.1500,1986566
2024-04-19,22.0000,22.2500,20.9000,22.1000,346575
2024-04-22,23.0500,23.2000,21.6000,22.4500,371283
2024-04-23,22.0500,22.9000,21.8000,22.0500,245867
2024-04-24,22.0000,22.5000,21.9000,22.0000,287056
2024-04-25,22.2500,22.2500,21.0000,21.3500,173168
2024-04-26,21.3500,21.8000,21.3500,21.6000,106113
2024-04-29,21.9500,21.9500,21.5000,21.7000,117777
2024-04-30,22.0000,22.7000,21.6500,22.0500,256537
2024-05-02,22.3500,23.2500,21.1500,22.9000,800970
2024-05-03,22.9500,23.0000,22.4000,22.6000,178059
2024-05-06,22.7500,22.8500,22.1500,22.4500,193243
2024-05-07,23.0000,23.0000,21.8000,22.1000,146988
2024-05-08,22.5000,22.7000,21.9500,22.0500,86039
2024-05-09,22.2000,22.2500,20.1500,20.8000,112511
2024-05-10,20.4000,20.8500,20.1500,20.6000,42582
2024-05-13,20.6000,20.8500,19.6000,20.2000,52836
2024-05-14,19.8000,22.0500,19.7000,21.5500,173093
2024-05-15,21.7500,22.2500,21.0000,21.5000,73362
2024-05-16,21.9000,21.9000,21.0000,21.0500,55536
2024-05-17,20.6000,22.2000,20.6000,21.4500,160020
2024-05-21,21.0000,22.0000,20.5000,21.2500,167699
2024-05-22,21.4000,21.4500,20.7000,21.0000,65009
2024-05-23,21.0500,21.3500,20.6000,20.7000,44899
2024-05-24,20.9500,21.0500,20.3000,20.5500,45103
2024-05-27,20.6000,20.9000,20.1000,20.2500,58758
2024-05-28,20.0000,20.4500,19.8500,19.9000,46062
2024-05-29,19.7000,21.1000,19.7000,20.7000,109213
2024-05-30,20.9500,21.1000,19.6500,20.1000,68494
2024-05-31,20.0000,20.3000,19.5500,19.7000,64092
2024-06-03,19.7500,20.4500,19.6500,19.8000,46103
2024-06-04,20.1500,20.1500,17.8500,18.3500,220207
2024-06-05,18.3500,18.9000,17.5000,18.3000,96204
2024-06-06,18.4500,19.8500,18.3500,19.5500,83179
2024-06-07,19.9000,21.5000,19.4000,20.0000,186798
2024-06-10,20.9000,20.9000,20.0100,20.2100,53281
2024-06-11,20.3800,20.8000,19.8700,20.2100,66456
2024-06-12,20.2500,20.5000,19.5600,19.9700,82620
2024-06-13,20.2800,20.2800,19.8500,19.9100,41243
2024-06-14,19.9500,20.9000,19.8800,20.0200,186163
2024-06-18,20.0500,20.4900,19.5000,19.6300,124568
2024-06-19,19.8500,19.8500,19.0100,19.1800,76697
2024-06-20,19.3800,19.5800,19.0000,19.0900,120780
2024-06-21,19.3000,19.5300,19.0500,19.4600,77355
2024-06-24,19.6500,20.1400,19.4000,19.4600,127706
2024-06-25,19.4900,19.9000,19.2600,19.3200,89751
2024-06-26,19.3000,19.8700,19.0000,19.5300,137472
2024-06-27,19.5300,19.6400,19.3600,19.5700,88836
2024-06-28,19.7900,19.7900,19.1700,19.6100,135717
2024-07-01,19.7400,20.7500,19.6200,20.5000,204523
2024-07-02,20.5100,21.8000,20.0200,21.1600,666799
2024-07-03,21.4800,21.7900,20.9000,20.9300,147120
2024-07-04,20.8000,21.1800,20.1500,20.2800,47598
2024-07-05,20.7000,21.8000,20.1000,21.0200,168096
2024-07-08,21.4400,21.9200,20.5000,21.0200,289215
2024-07-09,21.2400,21.9900,20.9500,20.9700,160139
2024-07-10,21.2300,21.2300,20.3000,20.6200,76323
2024-07-11,20.9500,20.9500,20.3000,20.3400,61478
2024-07-12,20.2500,21.4000,20.2500,21.1000,149216
2024-07-15,21.4700,21.4700,20.5800,20.7300,62068
2024-07-16,20.9700,20.9700,20.1200,20.2700,83161
2024-07-18,20.3200,21.2500,19.8100,20.4700,199309
2024-07-19,20.6700,20.7000,19.8100,20.0700,83057
2024-07-22,19.9500,20.0700,19.8000,19.8400,36919
2024-07-23,19.8500,20.2400,19.0000,19.7500,188638
2024-07-24,19.5200,21.7200,19.5200,21.6000,602057
2024-07-25,21.5000,23.2700,21.0500,21.7400,791043
2024-07-26,21.7400,22.1900,21.1200,21.2500,112955
2024-07-29,21.0600,21.4600,20.6100,20.9600,101884
2024-07-30,20.5200,21.6500,20.5200,21.1300,72161
2024-07-31,21.0000,21.4300,20.7000,20.8300,91101
2024-08-01,21.3900,21.3900,20.2500,20.4600,86999
2024-08-02,20.5000,20.9600,19.8600,20.7700,100794
2024-08-05,20.5200,20.5200,19.3900,19.8500,187224
2024-08-06,20.2500,20.3900,19.1100,19.4000,66892
2024-08-07,19.6700,21.4500,19.0200,20.3000,310962
2024-08-08,20.0500,20.8600,20.0000,20.1200,36935
2024-08-09,20.5300,22.7800,20.2000,21.8300,923112
2024-08-12,21.9900,22.4000,21.2300,21.3800,263170
2024-08-13,21.7800,21.7800,20.2000,20.3100,96181
2024-08-14,20.3700,20.5900,19.8100,19.9400,41942
2024-08-16,19.9500,20.4400,19.9500,20.1100,42862
2024-08-19,20.3400,22.8000,19.8400,22.3900,564336
2024-08-20,25.0000,25.3500,21.7400,23.5300,3481112
2024-08-21,23.5000,24.8400,22.8000,23.0400,896280
2024-08-22,23.3700,23.9000,22.5100,22.6100,161195
2024-08-23,22.6000,23.4900,21.9000,22.2500,367057
2024-08-26,22.7000,23.4500,22.1000,22.6400,98490
2024-08-27,22.8800,22.8800,21.0200,21.5300,221554
2024-08-28,21.6800,21.9900,20.8200,20.9800,202537
2024-08-29,21.1900,21.8000,20.6500,20.7300,139786
2024-08-30,20.9300,21.4400,20.0600,20.9800,521817
2024-09-02,21.3000,22.7400,20.8500,22.1400,637951
2024-09-03,22.5400,22.8100,22.0000,22.5800,282024
2024-09-04,21.6200,22.4800,21.6200,22.0100,91885
2024-09-05,22.0000,22.7400,21.8500,21.9800,185383
2024-09-06,22.1700,22.4900,21.5500,21.9700,269622
2024-09-09,21.9600,22.2200,21.5200,21.7900,121701
2024-09-10,21.7300,22.2900,21.7300,21.9500,64646
2024-09-11,21.9500,22.4700,21.9500,22.0300,112487
2024-09-12,22.0700,22.3000,21.4500,21.5600,85942
2024-09-13,21.8800,22.5000,21.6000,21.9600,401079
2024-09-16,22.3800,22.4000,21.8100,21.8300,85258
2024-09-17,21.5000,22.0000,21.5000,21.7800,58868
2024-09-18,21.9600,21.9600,20.8000,21.1500,179999
2024-09-19,21.4300,21.4400,20.4500,20.5300,138484
2024-09-20,20.9900,21.4000,20.6800,21.0900,123072
2024-09-23,21.1000,21.1000,20.8500,20.9100,50349
2024-09-24,20.9600,21.4500,20.6500,20.8700,81450
2024-09-25,20.9800,20.9900,19.9700,20.0200,267600
2024-09-26,20.2800,20.4900,19.9900,20.1900,111644
2024-09-27,20.6400,20.6400,20.0200,20.1600,64691
2024-09-30,20.1600,20.6000,20.0000,20.1500,159350
2024-10-01,20.2800,21.0000,20.0500,20.7100,200887
2024-10-03,20.9800,20.9800,20.1100,20.1900,85454
2024-10-04,20.1900,20.4900,19.4500,19.6100,139100
2024-10-07,19.8700,19.8700,18.6100,18.7700,107194
2024-10-08,19.0000,19.6800,18.6900,19.2800,68949
2024-10-09,19.6600,20.6600,19.3100,20.2800,167954
2024-10-10,20.4400,20.8900,20.1500,20.3100,125314
2024-10-11,20.4400,20.5900,19.8200,19.9200,61127
2024-10-14,20.2500,20.2500,19.6500,19.8800,83934
2024-10-15,19.5500,20.0000,19.5200,19.5800,40402
2024-10-16,19.7500,19.7500,19.0000,19.2700,79476
2024-10-17,19.2700,19.4700,18.8000,18.9400,71043
2024-10-18,18.8200,19.1900,18.6500,19.0600,42771
2024-10-21,19.4400,19.4400,18.7000,18.7200,23218
2024-10-22,18.7500,18.9100,18.0100,18.0500,31415
2024-10-23,18.0000,18.3900,17.2200,17.5200,145645
2024-10-24,17.3300,17.9800,17.1200,17.8400,76989
2024-10-25,17.8400,17.8500,17.2500,17.4000,49865
2024-10-28,17.1000,17.8700,17.1000,17.2300,51233
2024-10-29,17.7900,17.7900,16.9100,17.0900,62044
2024-10-30,17.4500,17.9500,17.0900,17.7100,50401
2024-10-31,17.4100,18.5000,17.4100,17.9600,68500
2024-11-01,18.4800,18.7700,18.0200,18.6200,27538
2024-11-04,19.0500,20.1000,18.8900,19.2100,143263
2024-11-05,19.2600,19.9600,19.2600,19.3800,76329
2024-11-06,19.4000,19.6900,18.8600,19.4700,46019
2024-11-07,19.4800,19.5100,18.9200,19.0900,25913
2024-11-08,19.1900,19.1900,18.6000,18.7700,35145
2024-11-11,19.1500,19.3000,18.9000,19.0800,28894
2024-11-12,19.2400,19.2400,18.0000,18.2300,37599
2024-11-13,18.2200,18.2200,17.1100,17.2300,57046
2024-11-14,17.5800,17.7200,17.3000,17.5800,23935
2024-11-18,17.5800,17.7000,16.6200,16.9200,49551
2024-11-19,17.2300,17.6400,16.7700,16.9600,74298
2024-11-21,16.8000,17.1200,16.2000,16.3300,54297
2024-11-22,16.6000,16.8400,16.3700,16.7100,24507
2024-11-25,16.9900,17.5500,16.9900,17.1500,67404
2024-11-26,17.4900,17.5500,16.2000,17.1500,39957
2024-11-27,17.4400,17.5900,17.1600,17.3300,23814
2024-11-28,17.6900,18.1000,17.3100,17.7200,55293
2024-11-29,17.9800,18.4000,17.6600,17.8900,22201
2024-12-02,18.3000,19.3400,18.0100,18.8600,169219
2024-12-03,18.9600,19.2100,18.7100,18.9900,68582
2024-12-04,18.6400,20.0000,18.6100,19.0000,84265
2024-12-05,19.0000,19.5500,18.7000,19.3400,43020
2024-12-06,19.4900,19.6000,18.9500,19.1500,65135
2024-12-09,19.1500,20.7500,19.1500,19.7000,265881
2024-12-10,19.8900,19.9300,19.3000,19.5600,51141
2024-12-11,19.7000,19.7400,19.2500,19.3000,36732
2024-12-12,19.5000,19.5000,19.0700,19.2100,86996
2024-12-13,19.2100,19.4800,18.7400,19.0000,44201
2024-12-16,18.8300,20.1300,18.8300,19.5600,145246
2024-12-17,19.0000,19.6400,18.7600,18.9500,55572
2024-12-18,18.7000,19.4300,18.6000,18.6800,36704
2024-12-19,18.6800,19.0300,18.4600,18.8100,87725
2024-12-20,18.9900,19.1000,18.7100,18.7500,78285
2024-12-23,18.7500,18.9300,18.1000,18.1600,51379
2024-12-24,18.0500,18.3000,17.3100,17.9700,53752
2024-12-26,17.5200,18.0800,17.5200,17.7800,24032
2024-12-27,17.5500,17.9900,17.5500,17.8300,26303
2024-12-30,17.5300,17.9200,17.5300,17.6300,28077
2024-12-31,17.3600,18.9700,17.3500,18.1800,10838
2025-01-01,18.2000,18.7900,18.1100,18.1800,79880
2025-01-02,18.4800,18.6800,18.1800,18.5200,22543
2025-01-03,18.4400,18.9900,18.1700,18.3000,37626
2025-01-06,18.1700,18.3900,17.3800,17.4400,42507
2025-01-07,17.5700,18.1500,17.5700,18.0100,36407
2025-01-08,18.3000,18.3000,18.0000,18.0100,28787
2025-01-09,18.0300,18.5400,17.5000,18.0600,40184
2025-01-10,18.4900,18.4900,17.0000,17.2000,68615
2025-01-13,17.0000,17.6000,16.2500,16.8900,145736
2025-01-14,17.0800,17.2800,16.7100,17.0100,37281
2025-01-15,16.7800,17.3800,16.7800,17.1000,50716
2025-01-16,17.3900,17.3900,17.0000,17.1900,28612
2025-01-17,17.0100,17.4500,16.5000,16.8800,53823
2025-01-20,17.1900,17.1900,16.8900,17.0600,18396
2025-01-21,17.0600,17.1900,16.4800,16.5100,43094
2025-01-22,16.5200,16.8700,16.2500,16.5900,17317
2025-01-23,16.5500,17.5000,16.3000,16.5600,99971
2025-01-24,16.8600,16.8600,14.6000,15.1400,183985
2025-01-27,15.1400,15.1400,14.5000,14.5400,430577
2025-01-28,14.8000,15.9500,14.5000,15.3900,97490
2025-01-29,15.6500,16.4000,15.4600,16.0800,88820
2025-01-30,16.0000,18.2000,16.0000,17.8300,197686
2025-01-31,18.2500,20.0500,17.8500,19.4800,491499
2025-02-01,19.4900,21.2000,18.5300,20.0700,259985
2025-02-03,20.0600,20.0600,19.5000,19.6200,68335
2025-02-04,19.9800,20.2500,19.5000,19.9000,50915
2025-02-05,20.0000,20.0000,19.0000,19.2400,45610
2025-02-06,19.6500,20.8000,18.5000,20.4300,263486
2025-02-07,20.0000,20.3900,19.1100,19.5000,102317
2025-02-10,20.0000,20.0000,19.0000,19.3500,47454
2025-02-11,19.9700,20.6000,19.0000,20.2800,297837
2025-02-12,20.4800,22.6900,20.3600,22.2200,1727835
2025-02-13,22.1800,23.5000,21.2000,22.6100,603448
2025-02-14,23.4000,23.4000,21.9200,22.4300,244385
2025-02-17,22.9500,23.2500,22.0000,22.5200,221842
2025-02-18,23.4900,23.4900,22.0000,22.9500,308089
2025-02-19,23.2900,27.0000,23.0100,25.2600,874064
2025-02-20,25.5000,29.0000,25.0700,27.1300,1263696
2025-02-21,27.8000,31.2000,27.5000,30.2200,1149173
2025-02-24,32.0000,36.2600,31.3000,36.2600,5656998
2025-02-25,35.0000,36.0000,34.4400,34.4400,219078
2025-02-27,32.7100,32.7100,32.7100,32.7100,7447
2025-02-28,31.0700,31.0700,31.0700,31.0700,9825
2025-03-03,29.5100,29.5100,29.5100,29.5100,89287
2025-03-04,28.0800,28.0800,28.0300,28.0300,8686
2025-03-05,26.6200,26.6200,26.6200,26.6200,49996
2025-03-06,25.2800,25.2800,25.2800,25.2800,8457
2025-03-07,24.0100,26.5400,24.0100,26.5400,356098
2025-03-10,27.6000,27.8000,25.2100,25.2100,165006
2025-03-11,23.9500,23.9500,23.9400,23.9400,213297
2025-03-12,22.7400,24.1000,22.7400,23.8100,371268
2025-03-13,23.0000,25.0000,22.6100,25.0000,340195
2025-03-17,24.0500,24.5000,23.7500,23.7500,78720
2025-03-18,23.7500,23.7500,23.7500,23.7500,0
2025-03-19,25.4500,25.4600,24.2600,25.4600,63768
2025-03-20,26.6400,26.7300,26.5000,26.7300,20941
2025-03-21,27.7000,28.0600,27.0500,28.0600,98970
2025-03-24,29.4000,29.4600,28.5000,29.4600,15486
2025-03-25,30.9300,30.9300,30.9300,30.9300,44249
2025-03-26,31.5400,31.5400,30.3100,31.5400,119962
2025-03-27,32.1700,32.1700,32.1700,32.1700,30533
2025-03-28,32.8100,32.8100,32.8100,32.8100,28661
2025-04-01,33.4600,33.4600,33.4600,33.4600,16372
2025-04-02,34.1200,34.1200,34.1200,34.1200,30920
2025-04-03,34.8000,34.8000,34.8000,34.8000,22441
2025-04-04,35.4900,35.4900,35.4900,35.4900,37274
2025-04-07,36.1900,36.1900,36.1900,36.1900,155576
2025-04-08,36.9100,36.9100,36.9100,36.9100,36527
2025-04-09,37.6400,37.6400,37.6400,37.6400,46587
2025-04-11,38.3900,38.3900,38.3900,38.3900,30197
2025-04-15,39.1500,39.1500,39.1500,39.1500,31442
2025-04-16,39.9300,39.9300,39.9300,39.9300,23110
2025-04-17,40.7200,40.7200,40.7200,40.7200,21244
2025-04-21,39.9000,39.9000,39.9000,39.9000,281187
2025-04-22,39.1000,39.1000,39.1000,39.1000,272985
2025-04-23,38.3100,38.3100,38.3100,38.3100,29895
2025-04-24,37.5400,37.5600,37.5400,37.5400,523065
2025-04-25,36.7800,36.7800,36.7800,36.7800,62507
2025-04-28,36.0400,36.7800,36.0400,36.0400,261861
2025-04-29,35.3100,35.3100,35.3100,35.3100,49220
2025-04-30,34.6000,34.6000,34.6000,34.6000,23775
2025-05-02,33.9000,33.9000,33.9000,33.9000,8873
2025-05-05,32.5000,33.8900,32.2000,32.2000,864614
2025-05-06,30.5900,30.5900,30.5900,30.5900,124674
2025-05-07,29.0600,32.1100,29.0600,30.8300,364545
2025-05-08,32.3700,32.3700,31.8900,32.3600,199465
2025-05-09,31.0000,33.9700,30.7400,33.9500,161434
2025-05-12,35.6400,35.6400,35.3800,35.6400,135622
2025-05-13,37.4200,37.4200,37.4200,37.4200,87196
2025-05-14,39.2900,39.2900,35.6000,37.7400,1085952
2025-05-15,36.9800,36.9800,36.9800,36.9800,76078
2025-05-16,37.5000,37.5000,37.0500,37.5000,194376
2025-05-19,37.5000,37.5000,37.1000,37.5000,59507
2025-05-20,38.2500,38.2500,37.8300,38.2500,50707
2025-05-21,39.0100,39.0100,39.0100,39.0100,11730
2025-05-22,39.7900,39.7900,39.7900,39.7900,21454
2025-05-23,40.5800,40.5800,40.5800,40.5800,10670
2025-05-26,41.3900,41.3900,41.3900,41.3900,8638
2025-05-27,42.2100,42.2100,42.2100,42.2100,12604
2025-05-28,43.0500,43.0500,43.0500,43.0500,17800
2025-05-29,43.9100,43.9100,43.9100,43.9100,8293
2025-05-30,43.0300,44.7800,43.0300,43.0300,860078
2025-06-02,42.1600,42.1600,42.1600,42.1600,95544
2025-06-03,41.3100,41.3100,41.3100,41.3100,25827
2025-06-04,40.4800,40.4800,40.4800,40.4800,37980
2025-06-05,39.6700,39.6700,39.6700,39.6700,47978
2025-06-06,38.8700,38.8700,38.8700,38.8700,21615
2025-06-09,39.6400,39.6400,38.0900,39.6400,212381
2025-06-10,38.8400,38.8400,38.8400,38.8400,59702
2025-06-11,38.0600,38.0600,38.0600,38.0600,41232
2025-06-12,37.2900,37.2900,37.2900,37.2900,170845
2025-06-13,36.5400,36.5400,36.5400,36.5400,38358
2025-06-16,35.8000,35.8000,35.8000,35.8000,7095
2025-06-17,35.0800,35.0800,35.0800,35.0800,46973
2025-06-18,34.3700,35.7800,34.3700,34.3700,675387
2025-06-19,33.6800,33.6800,33.6800,33.6800,126661
2025-06-20,33.0000,33.0000,33.0000,33.0000,440710
2025-06-23,31.3500,31.3500,31.3500,31.3500,89928
2025-06-24,29.7800,32.9100,29.7800,31.7100,820012
2025-06-25,30.6000,32.4000,30.1200,31.8300,277473
2025-06-26,32.0000,32.9000,31.1500,31.3300,46820
2025-06-27,30.7000,32.8900,30.7000,32.8800,96552
2025-06-30,33.4000,34.5200,33.4000,34.5200,158910
2025-07-01,36.2400,36.2400,35.0100,35.1500,265582
2025-07-02,36.0000,36.0000,33.3900,33.7500,285130
2025-07-03,33.4000,34.2500,32.0700,32.1400,140776
2025-07-04,31.8500,32.5000,31.0500,32.0700,63461
2025-07-07,31.4000,32.6900,31.0000,32.1100,32457
2025-07-08,31.9900,32.7000,30.6500,32.0000,22583
2025-07-09,32.0000,32.9000,31.1000,31.4200,45210
2025-07-10,31.5100,32.4500,31.0000,31.2200,71143
2025-07-11,32.2000,32.2000,31.0000,31.7500,35786
2025-07-14,32.2400,32.2400,31.0700,31.5700,16558
2025-07-15,31.5700,32.1000,30.9600,31.9300,48930
2025-07-16,32.0000,33.5200,32.0000,33.5200,29399
2025-07-17,35.1000,35.1900,35.0000,35.1900,269257
2025-07-18,34.2200,36.9400,34.1000,36.9400,145115
2025-07-21,35.5100,38.0000,35.0900,35.9200,556017
2025-07-22,35.2000,35.2000,35.2000,35.2000,53617
2025-07-23,34.4900,34.4900,34.4900,34.4900,3055
2025-07-24,33.8000,33.8000,33.8000,33.8000,927
2025-07-25,33.1200,33.1200,33.1200,33.1200,25133
2025-07-28,32.4500,32.4500,32.4500,32.4500,17643
2025-07-29,33.0900,33.0900,32.4500,33.0900,95494
2025-07-30,33.0500,33.6900,33.0000,33.0500,14824
2025-07-31,33.4500,33.4500,33.0000,33.4500,17210
2025-08-01,33.6000,33.6000,33.6000,33.6000,24953
2025-08-04,34.2700,34.2700,33.0000,34.2700,14652
2025-08-05,34.8800,34.9200,34.8800,34.8800,13276
2025-08-06,34.1800,34.8800,34.1800,34.1800,1591
2025-08-07,33.4900,33.9900,33.4900,33.4900,118
2025-08-08,33.0000,33.4900,32.8200,33.0000,32051
2025-08-11,33.0000,33.0000,32.4100,33.0000,4094
2025-08-12,32.3400,33.0000,32.3400,32.3400,4823
2025-08-13,31.7000,32.5000,31.7000,31.7000,24098
2025-08-14,31.0600,31.1100,31.0600,31.0600,3650
2025-08-18,30.4300,31.2100,30.4300,30.4300,14696
2025-08-19,31.0300,31.0300,30.6100,31.0300,53106
2025-08-20,31.6000,31.6500,31.4900,31.6000,16197
2025-08-21,32.2300,32.2300,32.0000,32.2300,24766
2025-08-22,32.8700,32.8700,32.8700,32.8700,2601
2025-08-25,33.0000,33.5200,32.9800,33.0000,46052
2025-08-26,32.3400,32.3400,32.3400,32.3400,47021
2025-08-28,31.6900,31.7500,31.6900,31.6900,13156
2025-08-29,31.1000,31.6000,31.0500,31.1000,41353
2025-09-01,31.4100,32.2000,29.6300,31.1600,49878
2025-09-02,30.1500,31.5200,30.0000,30.1700,27743
2025-09-03,30.0000,30.6800,29.1500,30.1800,34576
2025-09-04,29.9500,30.9000,29.2000,29.5300,30932
2025-09-05,29.5700,30.0000,29.0000,29.6100,16345
2025-09-08,29.6100,31.0700,29.5000,30.2700,8810
2025-09-09,29.8000,30.8700,29.2600,30.0000,47216
2025-09-10,29.5100,31.0000,29.4000,30.5000,23235
2025-09-11,29.9000,31.0000,29.5000,30.6000,20208
2025-09-12,30.2600,31.4100,30.2100,31.0300,16174
2025-09-15,32.5000,37.2300,32.5000,33.9700,898722
2025-09-16,34.0000,35.9900,33.6000,34.8700,149365
2025-09-17,35.0000,35.0000,32.2000,32.8500,112132
2025-09-18,32.8000,36.1800,32.2600,34.5000,132921
2025-09-19,34.4900,35.9500,33.0000,34.7900,65706
2025-09-22,35.4500,35.4500,33.0100,33.1300,36939
2025-09-23,33.0000,34.6000,32.4900,32.8600,572020
2025-09-24,33.5000,33.9000,32.0000,32.2000,57140
2025-09-25,33.0100,33.0600,31.3000,32.0300,36075
2025-09-26,32.0300,33.0300,31.2000,31.3800,23145
2025-09-29,30.5500,33.0000,30.5500,30.9300,57589
2025-09-30,30.5500,31.9500,30.5500,30.9600,28094
2025-10-01,30.1000,31.0900,29.2000,30.5500,38738
2025-10-03,29.5000,33.5000,29.5000,33.1000,85307
2025-10-06,32.5100,33.7900,32.5000,32.5200,37376
2025-10-07,32.1000,33.0000,32.0100,32.2600,35119
2025-10-08,32.9800,33.0000,31.0000,31.5700,46363
2025-10-09,31.5200,33.4300,31.0100,31.9200,29561
2025-10-10,31.2000,32.6000,31.2000,31.4900,14397
2025-10-13,31.0100,31.5100,30.0100,30.1800,48814
2025-10-14,30.8700,31.0000,29.8500,30.2200,71252
2025-10-15,29.7500,30.9100,29.6300,29.9100,40992
2025-10-16,30.0500,33.0200,30.0500,30.9400,141910
2025-10-17,30.5300,30.9000,29.4000,29.7100,75588
2025-10-20,29.1100,30.5000,29.1100,29.9000,25277
2025-10-21,30.2000,31.0000,29.0000,29.8200,16281
2025-10-23,29.4200,30.0000,29.4200,29.8900,11742
2025-10-24,29.6300,30.0000,29.5000,29.9400,24142
2025-10-27,29.5600,29.9900,29.0200,29.7900,37934
2025-10-28,29.3000,29.9200,29.2700,29.8000,31096
2025-10-29,29.8000,30.1700,29.4300,29.5500,18764
2025-10-30,29.1900,30.4700,29.1900,29.7900,31172
2025-10-31,29.3300,30.0000,29.0000,29.1400,19506
2025-11-03,29.2000,29.9000,29.1900,29.3000,11459
2025-11-04,29.3900,29.3900,27.3500,28.2600,25781
2025-11-06,28.3000,28.9000,28.0300,28.5000,27537
2025-11-07,27.5000,28.8000,27.0500,28.1600,36353
2025-11-10,27.1700,30.6900,27.1700,29.2200,28887
2025-11-11,29.3600,29.3700,28.4000,28.9400,12152
2025-11-12,28.9300,29.0900,28.4100,28.8700,7515
2025-11-13,28.2500,29.4900,28.0000,29.0200,111427
2025-11-14,29.4900,30.0000,28.6000,29.2900,22137
2025-11-17,30.0000,30.1900,29.5000,29.9000,25781
2025-11-18,29.7000,30.0000,29.1900,29.7300,38362
2025-11-19,30.5000,32.0000,29.2500,29.8700,123417
2025-11-20,30.5000,30.5000,29.1600,29.7300,84265
2025-11-21,29.1700,30.0000,28.3000,29.1300,96140
2025-11-24,28.3000,29.1900,28.0000,28.2400,32501
2025-11-25,27.3300,29.9000,27.3300,28.7900,168119
2025-11-26,30.8500,30.8500,28.2000,28.8800,110489
2025-11-27,29.9400,30.4000,28.3100,29.8000,66309
2025-11-28,30.1000,30.6600,29.3000,30.2100,15229
2025-12-01,29.9000,31.4800,29.1900,29.7500,22785
2025-12-02,29.0200,30.8700,29.0200,29.6900,41841
2025-12-03,30.5900,30.6000,29.2600,30.0900,36203
2025-12-04,30.9200,30.9200,29.9500,29.9900,34798
2025-12-05,30.7900,30.7900,29.5500,30.1400,27776
2025-12-08,30.0100,30.3300,29.2600,29.9900,34446
2025-12-09,29.8000,30.8400,29.8000,30.2800,118916
2025-12-10,30.9000,31.5200,30.2100,31.0200,36752
2025-12-11,31.2900,32.0100,30.8000,31.0700,26789
2025-12-12,31.9100,31.9800,30.9500,31.1700,38074
2025-12-15,30.6000,31.9900,30.0000,31.3900,97094
2025-12-16,30.6600,31.6400,30.6600,31.0100,23626
2025-12-17,31.2600,31.4700,30.5500,30.5700,23093
2025-12-18,31.7500,31.7500,30.1900,30.2000,26185
2025-12-19,31.0600,31.0600,30.5000,30.6000,15166
2025-12-22,31.0800,31.4800,30.6000,31.1800,38224
2025-12-23,31.7000,31.7000,30.6500,30.8600,26809
2025-12-24,31.0000,31.8800,30.9000,30.9900,25441
2025-12-26,31.6100,32.3000,30.9000,30.9400,66861
2025-12-29,31.5600,33.8900,31.5000,31.8700,80562
2025-12-30,31.4000,32.4600,30.8900,31.6600,14838
2025-12-31,33.2000,35.0000,31.2900,32.7200,113349
2026-01-01,32.7200,33.0900,31.5000,31.7000,34302
2026-01-02,33.0000,33.0000,31.5000,31.8100,18253
2026-01-05,31.7000,33.3000,31.4000,31.6100,21020
2026-01-06,33.2500,33.2500,31.1000,31.3100,7569
2026-01-07,31.3000,31.9800,30.9000,30.9100,17731
2026-01-08,32.0100,32.0100,30.8000,30.8000,19855
2026-01-09,32.3200,32.3200,30.9000,30.9100,22220
2026-01-12,30.9100,31.5000,29.2000,30.5000,15151
2026-01-13,30.6300,31.8700,30.5000,30.5000,21838
2026-01-14,32.9800,32.9800,30.4700,30.5400,33342
2026-01-16,31.1500,31.2000,29.2500,30.6300,8907
2026-01-19,30.6900,35.5000,30.1800,34.1800,299482
2026-01-20,34.2900,34.9900,30.3000,30.5200,99526
2026-01-21,29.2000,31.8000,29.2000,30.5200,38103
2026-01-22,33.5000,33.5000,30.5100,30.8600,12101
2026-01-23,30.8600,32.0000,30.5000,30.5600,23844
2026-01-27,30.5600,31.5400,30.5000,30.6700,37275
2026-01-28,30.5100,31.5000,30.5100,30.7600,18822
2026-01-29,29.4000,32.0500,29.4000,31.3400,84754
2026-01-30,31.9000,31.9000,30.0000,30.5900,107170
2026-02-02,29.4500,31.5800,29.4500,30.2000,46316
2026-02-03,29.2500,31.4900,29.2500,30.5000,27970
2026-02-04,31.2600,31.4400,30.2500,30.7000,106181
2026-02-05,30.1500,31.1400,30.1000,30.5000,46235
2026-02-06,30.4900,31.0000,29.5000,30.5400,20538
2026-02-09,30.5400,31.6000,29.7800,31.2600,19365
2026-02-10,31.5100,31.5100,30.7100,31.0200,18312
2026-02-11,30.5500,31.3000,30.5000,30.6300,45923
2026-02-12,31.4800,31.4800,30.4100,31.0100,25587
2026-02-13,31.3900,31.3900,30.1600,30.6300,27803
2026-02-16,31.5000,31.5000,29.6500,31.1200,64012
2026-02-17,31.5100,31.9900,30.8000,31.0400,31933
2026-02-18,30.2600,31.3500,30.2600,31.0300,23347
2026-02-19,30.3000,31.2400,30.3000,30.5800,30880
2026-02-20,30.7000,31.2800,30.6100,31.0700,318708
2026-02-23,31.1900,32.4800,30.7000,31.7800,283684
2026-02-24,32.4500,34.9000,31.5000,34.5000,300634
2026-02-25,36.7000,40.3800,35.5000,37.1600,747491
2026-02-26,37.5000,39.0000,35.2000,38.4800,193002
2026-02-27,38.5000,40.3500,34.0500,35.5400,270807
2026-03-02,35.5000,35.5000,32.2500,32.9500,129760
2026-03-04,32.1000,35.3500,32.1000,33.8700,57382
2026-03-05,34.7900,35.3200,32.3200,34.3200,51213
2026-03-06,35.3400,38.4800,34.9800,35.8800,227477
2026-03-09,35.8700,35.8700,33.7500,34.5600,38380
2026-03-10,36.8000,41.4700,35.0300,38.8500,418410
2026-03-11,38.8500,42.0000,36.7600,39.4100,428693
2026-03-12,39.8000,39.8000,35.1000,36.1800,504491
2026-03-13,36.1800,39.0000,35.6000,36.7600,130190
2026-03-16,35.7200,36.5300,34.2000,35.2300,207771
2026-03-17,35.2600,36.1000,34.1100,34.3300,85843
2026-03-18,34.8400,35.0000,34.0000,34.2600,59459
2026-03-19,33.9000,34.7700,33.5000,33.5700,83212
2026-03-20,33.3100,34.0000,32.9100,32.9800,61193
2026-03-23,32.9000,33.9000,29.1000,30.0100,347825
2026-03-24,29.8000,31.5400,29.8000,31.1900,115420
2026-03-25,30.8000,31.9500,30.8000,31.0200,66919
2026-03-27,31.0200,31.7800,30.4000,30.4600,76320
2026-03-30,30.9000,32.0000,28.5600,29.7500,97814
2026-04-01,30.2500,31.7900,30.0000,30.2300,99485
2026-04-02,30.2400,30.5100,29.8000,30.1600,56852
2026-04-06,30.0000,30.7000,30.0000,30.3300,47909
2026-04-07,30.3300,30.5000,30.0000,30.2500,28681
2026-04-08,31.2000,31.4900,30.3000,30.4000,101867
2026-04-09,30.0600,30.9300,30.0600,30.7200,16407
2026-04-10,31.4100,33.8500,30.5700,33.4900,204306
2026-04-13,33.0100,34.8300,32.5800,34.0400,69462
2026-04-15,35.0500,35.8500,34.0600,35.0400,65903
2026-04-16,35.9400,35.9400,34.3000,35.0600,35054
2026-04-17,34.4000,36.4500,34.4000,36.0500,82085
2026-04-20,34.4000,35.9900,33.2000,33.3900,65288
2026-04-21,33.0000,34.1800,33.0000,33.0100,16328
2026-04-22,33.0100,34.4900,33.0000,33.4700,38074
2026-04-23,33.6800,33.7800,32.6000,32.7900,27930
2026-04-24,32.1100,33.5400,32.1100,32.6000,11285
2026-04-27,32.6000,32.9600,31.2000,31.8900,30552
2026-04-28,32.0900,32.1500,31.5000,31.5300,14862
2026-04-29,31.5200,33.7000,31.5200,32.1200,25471
2026-04-30,31.3100,32.9400,31.3100,32.3200,21140
2026-05-04,32.3400,33.1700,31.5700,32.0500,19490
2026-05-05,32.0700,34.4000,31.9000,32.4000,100401
2026-05-06,32.4000,32.9600,31.9000,32.1100,23224
2026-05-07,32.0000,32.6800,31.9000,32.2300,17411
2026-05-08,32.0000,32.4000,31.3500,32.1000,63901
2026-05-11,31.5100,32.5000,31.5100,31.9800,9654
2026-05-12,31.9900,33.0000,30.0100,30.6300,38235
2026-05-13,30.3200,31.2000,30.2000,30.4200,31845
2026-05-14,30.0800,31.4700,30.0800,30.9200,13865
2026-05-15,30.7700,31.2500,28.1000,29.1200,102209
2026-05-18,29.9000,31.2000,28.3000,30.2800,60596
2026-05-19,30.2500,31.2900,29.6200,29.8000,19237
2026-05-20,30.0000,30.2000,29.6000,29.7100,11382
2026-05-21,30.0000,30.4000,28.9900,29.3700,28687
2026-05-22,29.0000,29.7300,28.5000,28.9800,27838
2026-05-25,29.2900,29.9900,28.1000,28.8100,25382
2026-05-26,28.8100,29.3500,28.3900,28.9900,14224
2026-05-27,28.9900,31.3400,28.9900,29.6900,47255
2026-05-28,29.6900,29.6900,29.6900,29.6900,0
2026-05-29,29.8300,30.5200,29.0300,29.6800,23793
2026-06-01,29.6800,30.3900,29.2000,29.2100,10996
2026-06-02,29.7500,29.9800,29.4000,29.4900,16875
2026-06-03,29.5500,29.8000,28.9700,29.0500,28810
2026-06-04,29.0000,29.9400,28.8000,29.3200,15772
2026-06-05,29.0100,30.2500,29.0100,29.5600,15430
2026-06-08,29.6600,30.4000,28.2000,29.7400,18217
2026-06-09,28.8500,29.9900,28.8500,29.0300,13304
2026-06-10,28.5000,30.1000,28.5000,29.5400,19011
2026-06-11,29.5000,30.2300,28.6000,28.9900,19459
2026-06-12,28.8900,29.8000,28.1000,29.1500,42389
2026-06-15,29.7000,30.1700,29.2500,29.8100,4019
2026-06-16,30.2000,30.2000,29.2100,29.6200,5748
2026-06-17,29.5000,29.9900,29.3500,29.8200,9675
2026-06-18,30.0000,30.4600,29.3100,29.8800,22895
2026-06-19,29.8800,30.1900,28.6600,29.2700,42976
2026-06-22,29.2700,29.7500,29.0000,29.1000,19371
2026-06-23,29.3500,29.8900,29.0500,29.5000,10447
2026-06-24,29.5800,29.7900,28.5000,29.2000,16918
2026-06-25,29.3000,29.8300,28.4000,29.0600,11411
2026-06-26,29.0600,29.0600,29.0600,29.0600,0
2026-06-29,28.5000,29.8000,28.5000,28.7200,6733
2026-06-30,29.0900,29.5000,28.9000,29.1500,11077
2026-07-01,29.8000,29.8000,28.9600,29.0200,7662
2026-07-02,29.3500,30.1900,27.9000,28.6700,29664
2026-07-03,28.6000,29.2600,28.5500,28.9800,14186
2026-07-06,28.6000,29.4500,28.5500,28.9000,7716
2026-07-07,28.7600,29.1800,28.6200,28.7200,4431
2026-07-08,28.5000,28.9900,28.0000,28.5100,10697
2026-07-09,28.7200,29.8500,28.4000,29.0500,29704
2026-07-10,29.1000,29.8700,28.7200,29.2100,2203
2026-07-13,29.1900,29.9600,28.7000,29.1200,10860
2026-07-14,29.1200,29.8000,28.5100,29.2300,3986
2026-07-15,29.2300,29.9000,28.3200,28.9500,32039
2026-07-16,29.3000,29.9000,28.5000,28.6100,18070
2026-07-17,28.6100,29.3600,28.4000,28.8400,3780
2026-07-20,28.8400,28.9900,28.4100,28.8500,5477
2026-07-21,28.5000,29.2500,28.5000,29.0500,10602
2026-07-22,29.0400,29.1800,27.1200,27.9300,39441
2026-07-23,28.0600,29.9400,28.0500,28.4800,73691
2026-07-24,28.4800,28.9700,27.6900,28.5700,23096
2026-07-27,28.7400,29.1000,28.1000,28.5200,12069
2026-07-28,28.5300,29.4000,28.5200,28.7700,8191
2026-07-29,28.5100,29.4800,28.5000,28.6800,8219
2026-07-30,28.5000,29.3200,28.3500,28.8200,7616
2026-07-31,28.5000,28.7100,28.0200,28.3900,24068
2026-08-03,28.3900,31.9900,28.3900,30.8500,96270
2026-08-04,30.5000,34.2000,29.3000,33.3700,379957
2026-08-05,33.5300,34.4800,32.7000,33.4500,212385
2026-08-06,33.5000,34.0000,31.5100,33.5200,77454
2026-08-07,33.6800,33.6800,32.5100,33.0800,11397
2026-08-10,32.3500,35.0000,32.2500,33.7600,109113
2026-08-11,34.0000,34.0000,32.9100,33.3600,51060
2026-08-12,33.3600,34.5000,33.1100,33.4700,19116
2026-08-13,32.8300,34.1000,31.5100,31.8800,40554
2026-08-14,31.5000,33.3000,30.9000,31.6200,11064
2026-08-17,31.0000,33.4400,31.0000,32.7800,23649
2026-08-18,32.8700,33.9000,31.9500,33.5400,22579
2026-08-19,32.6500,33.5000,31.6000,32.4000,6278
2026-08-20,32.5000,32.9500,30.7000,31.6600,17981
2026-08-21,32.8900,32.8900,31.2200,31.7900,5205
2026-08-24,33.2000,33.2000,31.3400,31.8300,9935
2026-08-25,31.1900,31.8900,30.2500,31.7900,7527
2026-08-26,31.0300,32.1900,31.0300,31.8100,19414
2026-08-27,32.0000,33.4900,31.7500,32.7700,32254
2026-08-28,32.9500,33.0000,31.5000,31.8000,11248
2026-08-31,30.5700,32.3500,30.5700,31.3200,10106
2026-09-01,30.8000,32.1600,30.7600,31.4900,19126
2026-09-02,31.8000,31.8000,30.8200,31.2000,6736
2026-09-03,31.8900,32.8000,30.5000,32.3500,39050
2026-09-04,32.9600,32.9600,31.6600,31.7500,4990
2026-09-08,32.8900,34.3000,32.6600,33.7400,151147
2026-09-09,33.9000,34.5000,32.6600,32.6900,11958
2026-09-10,33.0200,33.0200,32.1000,32.1500,8566
2026-09-11,32.7900,32.7900,30.5200,30.9500,55690
2026-09-15,30.9500,32.7100,30.5000,30.9400,16171
2026-09-16,31.5700,31.5700,30.0000,30.1600,13260
